Asteroid designations ( Number, Name, Temporary designation): 9068, 1993 OD, 1992_AY2
Observation was done on (UT) (format YYYY-MM-DD-hh): 2013 - 10 - 21 - 13:30
Observation was made by : Marcel Popescu E-mail; mpopescu@imcce.fr
At observatory with UAI code: 568
Obsv. comments: Solar analog: HD23650; For details and collaboration opportunities contact mpopescu@imcce.fr
The spectrum was published in the article: Unpublished
The normalization of this spectrum was made for the wavelength: 1.250 microns.
Original name of the file was: 9068.txt
Wavelength[um]	Reflectance	sigma(optional)
0.8250 0.98576
0.8300 0.99718
0.8350 0.99473
0.8400 0.98895
0.8450 0.99659
0.8500 0.98798
0.8550 0.99404
0.8600 0.98836
0.8650 0.98302
0.8700 0.97766
0.8750 0.97383
0.8800 0.98563
0.8850 0.98326
0.8900 0.97972
0.8950 0.98492
0.9000 0.98021
0.9050 0.98396
0.9100 0.98680
0.9150 0.98564
0.9200 0.99031
0.9250 0.98938
0.9300 0.97474
0.9350 0.96938
0.9400 0.97730
0.9500 0.98405
0.9550 0.98890
0.9600 0.99370
0.9650 0.99641
0.9700 0.99596
0.9750 0.98894
0.9800 0.98978
0.9850 0.99988
0.9900 0.98489
0.9950 1.00381
1.0000 1.00646
1.0050 0.99918
1.0100 1.00028
1.0150 1.00715
1.0200 1.00479
1.0250 1.00678
1.0300 1.00330
1.0350 1.00441
1.0400 1.01291
1.0450 1.01596
1.0500 1.00890
1.0550 1.00579
1.0600 1.00860
1.0650 1.01204
1.0700 1.00817
1.0750 1.00528
1.0800 1.01635
1.0850 1.00829
1.0900 1.01446
1.0950 1.01278
1.1000 1.00452
1.1050 1.01205
1.1100 1.01501
1.1150 1.00010
1.1200 1.00182
1.1250 1.01080
1.1300 1.00084
1.1350 1.00868
1.1400 1.01313
1.1450 1.01244
1.1550 1.00631
1.1600 1.01090
1.1650 1.01125
1.1700 1.00724
1.1750 1.00471
1.1800 1.01212
1.1850 1.00665
1.1900 1.00941
1.1950 1.00609
1.2000 1.00847
1.2050 1.01319
1.2100 1.01106
1.2150 1.00302
1.2200 1.00115
1.2250 0.99915
1.2300 1.00439
1.2350 1.01053
1.2400 0.99427
1.2450 0.99686
1.2500 1.00000
1.2550 1.00999
1.2600 1.00101
1.2700 0.97643
1.2750 0.99816
1.2800 0.98992
1.2850 0.99102
1.2900 1.00353
1.2950 0.99610
1.3000 0.98563
1.3050 0.99652
1.3100 0.99417
1.3150 0.98421
1.3200 0.99562
1.3250 1.00216
1.3300 0.99725
1.3350 1.01103
1.3400 1.00742
1.3650 1.02199
1.3750 0.99390
1.3850 0.99809
1.3900 1.01213
1.4050 0.99436
1.4100 1.02867
1.4150 1.01036
1.4200 1.01704
1.4250 1.02614
1.4300 1.01457
1.4350 1.00690
1.4400 1.00523
1.4450 1.02312
1.4500 1.03374
1.4600 1.02352
1.4650 1.00144
1.4700 1.00374
1.4750 1.03857
1.4800 1.01979
1.4850 1.00294
1.4900 1.02274
1.4950 1.02110
1.5000 1.02231
1.5050 1.00822
1.5100 1.00992
1.5150 1.00450
1.5200 1.01826
1.5250 1.00901
1.5300 1.01292
1.5350 1.00273
1.5400 0.99341
1.5450 1.03473
1.5500 1.04692
1.5550 1.00197
1.5600 1.01009
1.5650 1.01670
1.5700 0.99537
1.5750 0.98232
1.5800 0.99589
1.5850 1.00801
1.5900 1.01570
1.5950 1.00350
1.6000 1.02874
1.6050 1.01405
1.6100 0.99071
1.6150 0.98548
1.6200 0.98741
1.6250 1.02366
1.6300 0.96587
1.6350 0.97426
1.6400 0.97629
1.6450 1.00387
1.6500 1.01066
1.6550 1.00701
1.6600 1.01279
1.6650 0.99212
1.6700 0.99372
1.6750 0.99965
1.6800 1.02779
1.6850 0.99509
1.6900 0.98636
1.7000 0.99434
1.7050 0.97296
1.7100 0.98956
1.7150 1.01692
1.7200 1.03409
1.7250 1.01602
1.7300 1.01999
1.7350 0.99052
1.7400 1.01928
1.7450 0.98140
1.7500 0.99405
1.7550 1.01767
1.7600 1.00807
1.7650 1.03043
1.7700 1.01713
1.7750 1.06621
1.7800 1.02289
1.7850 1.02220
1.7900 1.02638
1.7950 1.01576
1.8000 0.98250
1.8050 1.04009
1.8100 1.02198
1.8150 1.01910
1.8200 1.03804
1.8250 1.02478
1.8400 1.06546
1.8450 0.98231
1.8500 0.97427
1.8800 1.03605
1.8850 0.97179
1.8900 0.98343
1.8950 0.99863
1.9050 1.05202
1.9100 1.00889
1.9200 1.03134
1.9300 0.96730
1.9350 1.00774
1.9400 1.00984
1.9450 1.02414
1.9500 0.99970
1.9550 0.97251
1.9600 0.97976
1.9650 0.97864
1.9700 1.00665
1.9750 1.00439
1.9800 1.01462
1.9850 1.00788
1.9900 1.03424
1.9950 1.02300
2.0000 0.99783
2.0150 0.99977
2.0200 1.00308
2.0250 0.97700
2.0300 0.96291
2.0350 0.98272
2.0400 1.02858
2.0450 1.02061
2.0500 0.99480
2.0550 1.01401
2.0600 0.96323
2.0650 0.97566
2.0700 1.03600
2.0750 1.02256
2.0800 0.99774
2.0850 0.99767
2.0900 1.02231
2.0950 0.99570
2.1000 1.01205
2.1050 1.00470
2.1100 0.99710
2.1150 1.00672
2.1200 0.97801
2.1250 1.01902
2.1300 1.00774
2.1350 0.99574
2.1400 0.97766
2.1450 1.01154
2.1500 1.00543
2.1550 1.00521
2.1600 1.03638
2.1650 0.99631
2.1700 0.99665
2.1750 0.98236
2.1800 0.98774
2.1850 1.00466
2.1900 0.99732
2.1950 0.99343
2.2000 0.94543
2.2050 0.96239
2.2100 0.97752
2.2150 1.00607
2.2200 1.03998
2.2250 0.99704
2.2300 0.96839
2.2350 0.99198
2.2400 0.99381
2.2450 1.01312
2.2500 1.00179
2.2550 1.00008
2.2600 1.00828
2.2650 0.99628
2.2700 1.00886
2.2750 0.99980
2.2800 1.00822
2.2850 1.00898
2.2900 1.01136
2.2950 0.99226
2.3000 0.95497
2.3050 0.99793
2.3150 1.01645
2.3200 1.02344
2.3250 0.98669
2.3300 0.99716
2.3350 1.02527
2.3400 1.01635
2.3450 1.00124
2.3500 0.98520
2.3550 0.97938
2.3600 0.97212
2.3650 0.95609
2.3700 0.98702
2.3750 0.98456
2.3800 0.97222
2.3850 1.02382
2.3900 1.00723
2.3950 0.95167
2.4000 0.95220
2.4050 0.92403
2.4150 0.92548
2.4200 0.99449
2.4250 1.01309
2.4300 0.92356
2.4500 1.01272
2.4550 1.02697
2.4600 0.98754
2.4650 0.97019
2.4800 1.03022
