Asteroid designations ( Number, Name, Temporary designation): 175706, -, 1996_FG3
Observation was done on (UT) (format YYYY-MM-DD-hh): 2009 - 03 - 30 - 00:00
Observation was made by : MIT SMASS Minus E-mail; http://smass.mit.edu/minus.html
At observatory with UAI code: 568
Obsv. comments: Visble part from http://adsabs.harvard.edu/abs/2001Icar..151..139B
The spectrum was published in the article: http://adsabs.harvard.edu/abs/2011A%26A...530L..12D
The normalization of this spectrum was made for the wavelength: 0.550 microns.
Original name of the file was: tempsepc4334
Wavelength[um]	Reflectance	sigma(optional)
0.3700 0.83720
0.3730 0.83930
0.3750 0.83550
0.3770 0.85970
0.3950 0.89550
0.3980 0.90580
0.4000 0.89510
0.4030 0.91250
0.4050 0.91190
0.4070 0.89660
0.4100 0.91880
0.4130 0.90520
0.4150 0.90740
0.4170 0.89680
0.4200 0.91720
0.4220 0.90130
0.4250 0.93460
0.4280 0.90760
0.4300 0.90680
0.4330 0.95910
0.4350 0.95600
0.4380 0.91970
0.4400 0.93870
0.4420 0.96120
0.4450 0.95640
0.4470 0.95800
0.4500 0.97010
0.4530 0.96050
0.4550 0.96660
0.4580 0.96040
0.4600 0.97060
0.4630 0.96480
0.4650 0.96670
0.4680 0.95290
0.4700 0.95580
0.4720 0.97410
0.4750 0.97460
0.4770 0.98140
0.4800 1.00870
0.4830 0.98930
0.4850 0.97520
0.4880 0.99340
0.4900 0.98530
0.4920 0.99440
0.4950 1.00150
0.4970 0.96340
0.5000 0.99510
0.5020 0.98240
0.5050 0.99160
0.5150 0.99260
0.5200 1.00210
0.5270 0.97920
0.5300 1.00600
0.5320 1.00190
0.5350 1.00040
0.5380 1.00590
0.5400 0.99390
0.5420 1.01520
0.5450 1.00210
0.5470 0.99780
0.5500 1.00000
0.5530 1.00350
0.5550 1.00030
0.5580 0.99920
0.5600 1.00250
0.5630 1.00760
0.5650 1.00410
0.5670 1.01080
0.5700 1.00200
0.5720 1.00780
0.5750 1.01840
0.5780 1.00410
0.5800 1.00830
0.5830 1.00800
0.5850 1.01950
0.5880 0.99180
0.5900 0.99570
0.5930 1.01020
0.5950 1.00480
0.5980 1.00820
0.6000 0.99900
0.6030 1.00790
0.6050 1.00600
0.6080 1.01240
0.6100 1.00840
0.6130 0.99430
0.6150 1.01050
0.6180 1.00250
0.6200 1.00550
0.6230 1.01270
0.6250 1.01040
0.6270 1.01060
0.6300 1.01240
0.6320 1.00280
0.6350 1.01230
0.6380 1.00490
0.6400 1.00180
0.6420 0.99600
0.6450 1.00020
0.6470 1.00270
0.6500 0.99740
0.6520 0.99840
0.6550 0.99750
0.6570 1.00370
0.6600 0.99860
0.6630 1.00450
0.6650 1.00770
0.6670 1.00290
0.6700 1.00240
0.6720 1.00360
0.6750 1.00370
0.6780 1.00150
0.6800 1.00040
0.6830 0.99490
0.6850 0.99650
0.6900 1.00730
0.6920 1.00180
0.6950 1.00160
0.6970 1.00710
0.7000 0.99990
0.7030 0.99780
0.7050 1.00090
0.7080 0.99810
0.7100 0.99910
0.7130 0.99010
0.7150 0.99330
0.7180 1.00880
0.7200 0.99400
0.7230 0.99480
0.7250 0.99090
0.7280 1.00010
0.7300 0.98910
0.7330 0.98560
0.7350 0.98700
0.7380 0.99010
0.7400 0.98360
0.7430 0.98960
0.7450 0.98580
0.7480 0.99320
0.7500 0.99600
0.7520 0.98750
0.7550 0.99140
0.7570 0.98770
0.7600 0.99410
0.7650 0.99830
0.7700 0.99020
0.7750 0.97890
0.7770 0.99450
0.7800 0.98140
0.7820 0.99040
0.7850 0.98330
0.7880 0.97950
0.7900 0.99040
0.7920 0.99100
0.7950 0.99150
0.7970 0.96360
0.8000 0.99010
0.8030 0.97310
0.8050 0.97300
0.8070 0.98500
0.8100 0.97940
0.8130 0.99130
0.8150 0.96970
0.8180 0.97500
0.8200 0.96570
0.8220 0.97940
0.8250 0.97300
0.8300 0.96900
0.8350 0.97410
0.8380 0.99650
0.8400 0.97400
0.8430 0.95940
0.8450 0.98420
0.8470 0.97280
0.8500 0.96100
0.8530 0.97860
0.8550 0.97400
0.8580 0.96080
0.8600 0.97570
0.8630 0.96310
0.8650 0.95160
0.8680 0.95650
0.8700 0.96300
0.8730 0.95940
0.8750 0.95840
0.8770 0.94960
0.8800 0.96580
0.8820 0.94800
0.8850 0.95390
0.8880 0.96440
0.8900 0.95410
0.8920 0.95800
0.8950 0.97930
0.8970 0.97930
0.9000 0.96450
0.9030 0.96670
0.9050 0.96650
0.9070 0.96970
0.9100 0.96220
0.9130 0.97980
0.9150 0.96000
0.9180 0.94780
0.9200 0.95430
0.9220 0.95080
0.9250 0.95870
0.9280 0.94200
0.9300 0.95730
0.9350 0.96230
0.9400 0.94560
0.9450 0.94790
0.9500 0.95320
0.9550 0.95950
0.9600 0.97390
0.9650 0.95910
0.9700 0.96080
0.9750 0.96480
0.9800 0.95810
0.9850 0.95580
0.9900 0.96370
0.9950 0.96650
1.0000 0.96270
1.0050 0.95560
1.0100 0.95070
1.0150 0.95430
1.0200 0.96350
1.0250 0.95610
1.0300 0.95340
1.0350 0.94600
1.0400 0.93600
1.0450 0.94260
1.0500 0.95850
1.0550 0.94560
1.0600 0.94630
1.0650 0.95180
1.0700 0.95450
1.0750 0.94290
1.0800 0.94390
1.0850 0.95050
1.0900 0.94300
1.0950 0.94120
1.1000 0.94910
1.1050 0.94150
1.1100 0.93840
1.1150 0.93700
1.1200 0.94180
1.1250 0.95780
1.1300 0.93920
1.1350 0.93420
1.1400 0.93630
1.1450 0.92890
1.1500 0.93450
1.1550 0.93160
1.1600 0.92160
1.1650 0.94640
1.1700 0.93970
1.1750 0.94410
1.1800 0.95320
1.1850 0.93570
1.1900 0.93170
1.1950 0.93350
1.2000 0.94510
1.2050 0.94780
1.2100 0.93690
1.2150 0.93370
1.2200 0.94190
1.2250 0.93170
1.2300 0.93250
1.2350 0.94790
1.2400 0.93690
1.2450 0.93100
1.2500 0.92930
1.2550 0.93240
1.2600 0.93340
1.2650 0.94830
1.2700 0.93710
1.2750 0.93550
1.2800 0.95010
1.2850 0.95130
1.2900 0.95460
1.2950 0.94610
1.3000 0.93220
1.3050 0.94150
1.3100 0.94900
1.3150 0.93080
1.3200 0.93630
1.3250 0.94080
1.3300 0.94790
1.3350 0.93430
1.3400 0.93710
1.3450 0.94050
1.3500 0.93210
1.3550 0.94190
1.3600 0.93950
1.3650 0.94110
1.3700 0.93530
1.3750 0.93800
1.3800 0.94090
1.3850 0.95150
1.3900 0.95880
1.3950 0.94590
1.4000 0.95160
1.4050 0.95410
1.4100 0.96150
1.4150 0.95730
1.4200 0.95770
1.4250 0.96670
1.4300 0.96340
1.4350 0.94960
1.4400 0.94440
1.4450 0.95440
1.4500 0.96480
1.4550 0.96600
1.4600 0.95320
1.4650 0.97100
1.4700 0.96620
1.4750 0.95230
1.4800 0.95060
1.4850 0.96870
1.4900 0.97500
1.4950 0.96520
1.5000 0.95930
1.5050 0.96770
1.5100 0.95820
1.5150 0.95960
1.5200 0.97410
1.5250 0.97870
1.5300 0.97390
1.5350 0.96260
1.5400 0.96540
1.5450 0.98830
1.5500 0.98740
1.5550 0.96940
1.5600 0.94940
1.5650 0.96140
1.5700 0.98870
1.5750 0.98130
1.5800 0.96700
1.5850 0.96930
1.5900 0.96640
1.5950 0.96820
1.6000 0.97890
1.6050 0.99850
1.6100 0.97840
1.6150 0.95900
1.6200 0.99770
1.6250 0.99980
1.6300 0.96740
1.6350 0.95280
1.6400 0.97280
1.6450 0.97810
1.6500 0.96300
1.6550 0.96110
1.6600 0.95850
1.6650 0.96690
1.6700 0.97440
1.6750 0.94880
1.6800 0.93610
1.6850 0.95750
1.6900 0.98320
1.6950 0.97980
1.7000 0.96990
1.7050 0.99070
1.7100 0.97960
1.7150 0.97430
1.7200 0.97310
1.7250 0.97010
1.7300 0.96740
1.7350 0.97420
1.7400 0.95460
1.7450 0.94630
1.7500 0.96130
1.7550 0.97380
1.7600 0.95070
1.7650 0.95280
1.7700 0.98520
1.7750 0.97600
1.7800 0.97130
1.7850 0.97800
1.7900 0.95210
1.7950 0.94940
1.8000 0.99430
1.8050 0.98590
1.8100 0.96800
1.8150 0.95970
1.8200 0.95390
1.8250 0.97730
1.8300 0.95150
1.8350 0.93340
1.8400 0.94380
1.8450 0.93760
1.8500 0.94030
1.8550 0.95850
1.8600 0.97290
1.8650 0.94780
1.8700 0.97750
1.8750 0.95570
1.8800 0.97660
1.8900 0.96390
1.8950 0.92450
1.9000 0.97090
1.9050 0.97840
1.9100 0.92540
1.9150 0.94100
1.9200 0.95850
1.9250 0.98540
1.9300 0.95650
1.9350 0.95030
1.9400 0.95840
1.9450 0.96220
1.9500 0.95330
1.9550 0.98070
1.9600 0.98130
1.9650 0.93000
1.9700 0.95720
1.9750 0.97140
1.9800 0.95630
1.9850 0.95200
1.9900 0.97990
1.9950 0.95960
2.0000 0.96440
2.0050 0.94700
2.0200 0.93440
2.0250 0.95240
2.0300 0.93640
2.0350 0.94700
2.0400 0.99300
2.0450 0.99020
2.0500 0.96350
2.0550 0.97630
2.0600 0.92880
2.0650 0.92740
2.0700 0.95090
2.0750 0.95880
2.0800 0.95260
2.0900 0.94950
2.0950 0.98810
2.1000 0.95400
2.1050 0.94060
2.1100 0.95920
2.1150 0.97130
2.1200 0.96670
2.1250 0.97150
2.1300 0.98790
2.1350 0.95380
2.1400 0.96840
2.1450 0.95310
2.1500 0.96000
2.1550 0.96970
2.1600 0.94450
2.1650 0.96800
2.1700 0.98670
2.1750 0.98170
2.1800 0.98610
2.1850 0.99570
2.1900 0.99400
2.1950 1.00100
2.2000 0.98000
2.2050 0.96420
2.2100 1.00100
2.2150 1.00040
2.2200 0.98400
2.2250 1.01350
2.2300 1.01160
2.2350 0.99880
2.2400 0.96620
2.2450 0.97100
2.2500 0.99560
2.2550 0.99950
2.2600 1.03040
2.2650 1.03280
2.2700 1.02630
2.2750 1.01110
2.2800 0.97750
2.2850 1.00580
2.2900 1.03540
2.2950 1.02740
2.3000 0.98740
2.3050 0.98490
2.3100 1.03780
2.3150 1.03760
2.3200 1.01930
2.3250 1.01170
2.3300 0.99490
2.3350 1.02780
2.3400 1.04070
2.3550 1.01800
2.3600 1.01230
2.3650 1.01200
2.3700 0.99970
2.3800 0.99400
2.3850 1.00370
2.3900 1.00520
2.3950 1.03970
2.4000 1.02290
2.4050 1.04040
2.4100 1.05390
2.4150 1.04950
2.4200 1.04250
2.4250 1.00200
2.4350 1.01980
2.4400 1.00670
2.4450 1.05330
2.4500 1.02470
