Asteroid designations ( Number, Name, Temporary designation): 175706, -, 1996_FG3
Observation was done on (UT) (format YYYY-MM-DD-hh): 2011 - 01 - 09 - 00:00
Observation was made by : J. de Leon E-mail; jleon@iaa.es
At observatory with UAI code: 950
Obsv. comments: NICS Spectrograph 3.6m Telescopio Nazionale Galileo
The spectrum was published in the article: http://adsabs.harvard.edu/abs/2011A%26A...530L..12D
The normalization of this spectrum was made for the wavelength: 1.250 microns.
Original name of the file was: FG3_resmpl.dat
Wavelength[um]	Reflectance	sigma(optional)
0.8000 0.97068
0.8050 1.01207
0.8100 0.99605
0.8150 0.96269
0.8200 0.98881
0.8250 0.96511
0.8300 1.02858
0.8350 0.89725
0.8400 0.95761
0.8450 0.90306
0.8500 1.00685
0.8550 0.99489
0.8600 0.94879
0.8650 0.94870
0.8700 0.94389
0.8750 0.96720
0.8800 0.90857
0.8850 0.89141
0.8900 0.93086
0.8950 0.90424
0.9000 0.94006
0.9050 0.93628
0.9100 0.91087
0.9150 0.92516
0.9200 0.93884
0.9250 0.91256
0.9300 0.95256
0.9350 0.99616
0.9400 0.94926
0.9450 0.93331
0.9500 0.96764
0.9550 0.97079
0.9600 0.97725
0.9650 0.96961
0.9700 0.95826
0.9750 0.95490
0.9800 0.96786
0.9850 0.95132
0.9900 0.95191
0.9950 0.91844
1.0000 0.92955
1.0050 0.94841
1.0100 0.95712
1.0150 0.96756
1.0200 0.96594
1.0250 0.95224
1.0300 0.94254
1.0350 0.95872
1.0400 0.97439
1.0450 0.96178
1.0500 0.98791
1.0550 0.98250
1.0600 0.95226
1.0650 0.94152
1.0700 0.95606
1.0750 0.97754
1.0800 0.98528
1.0850 0.98544
1.0900 0.98767
1.0950 0.98473
1.1000 0.97150
1.1050 0.96025
1.1100 0.97130
1.1150 0.96963
1.1200 0.97778
1.1250 1.00948
1.1300 0.99145
1.1350 0.98612
1.1400 0.99316
1.1450 1.00100
1.1500 1.00212
1.1550 0.99191
1.1600 0.98348
1.1650 0.99384
1.1700 0.97556
1.1750 0.96902
1.1800 0.98231
1.1850 0.98919
1.1900 0.97789
1.1950 0.96436
1.2000 0.98860
1.2050 0.99282
1.2100 0.98191
1.2150 0.97928
1.2200 0.97825
1.2250 0.97871
1.2300 0.98766
1.2350 1.00479
1.2400 1.02125
1.2450 1.01291
1.2500 1.00000
1.2550 0.98812
1.2600 1.00648
1.2650 1.01758
1.2700 0.99479
1.2750 1.00003
1.2800 1.02360
1.2850 1.01225
1.2900 1.00051
1.2950 1.00525
1.3000 1.01284
1.3050 1.02003
1.3100 1.01853
1.3150 1.01675
1.3200 1.01727
1.3250 1.01829
1.3300 1.01965
1.3350 0.98863
1.3400 0.97251
1.3450 1.02960
1.3500 1.05637
1.3550 1.02311
1.3900 1.04105
1.3950 0.99039
1.4000 0.97633
1.4050 0.99187
1.4100 1.02491
1.4150 1.01171
1.4200 0.97117
1.4250 0.98404
1.4300 1.01697
1.4350 1.05636
1.4400 1.08418
1.4450 1.05168
1.4500 1.01393
1.4550 1.00952
1.4600 1.02370
1.4650 1.05414
1.4700 1.07666
1.4750 1.08492
1.4800 1.08286
1.4850 1.07186
1.4900 1.06885
1.4950 1.07508
1.5000 1.06846
1.5050 1.04947
1.5100 1.05816
1.5150 1.08900
1.5200 1.11036
1.5250 1.12247
1.5300 1.12050
1.5350 1.11111
1.5400 1.10576
1.5450 1.10407
1.5500 1.10084
1.5550 1.09550
1.5600 1.08755
1.5650 1.07841
1.5700 1.07258
1.5750 1.06960
1.5800 1.08418
1.5850 1.10857
1.5900 1.11032
1.5950 1.09555
1.6000 1.10860
1.6050 1.14316
1.6100 1.14430
1.6150 1.11578
1.6200 1.09569
1.6250 1.08965
1.6300 1.09194
1.6350 1.09816
1.6400 1.10198
1.6450 1.10207
1.6500 1.09132
1.6550 1.06722
1.6600 1.05946
1.6650 1.08656
1.6700 1.11487
1.6750 1.12144
1.6800 1.12336
1.6850 1.13160
1.6900 1.13631
1.6950 1.12509
1.7000 1.10935
1.7050 1.10398
1.7100 1.10443
1.7150 1.11378
1.7200 1.12699
1.7250 1.10511
1.7300 1.07114
1.7350 1.06292
1.7400 1.06468
1.7450 1.09440
1.7500 1.13552
1.7550 1.14240
1.7600 1.12839
1.7650 1.12911
1.7700 1.14448
1.7750 1.14069
1.7800 1.11666
1.7850 1.08416
1.7900 1.04856
1.7950 1.03557
1.8000 1.05569
1.8050 1.10464
1.8100 1.19035
1.8250 1.12713
1.8700 1.14772
1.8850 1.07177
1.9150 1.28447
1.9200 1.09104
1.9400 0.99416
1.9450 1.00944
1.9500 0.99363
1.9650 1.01817
1.9700 1.09153
1.9750 1.09992
1.9800 1.09053
1.9850 1.11364
1.9900 1.14749
1.9950 1.14610
2.0000 1.12461
2.0050 1.10660
2.0100 1.08814
2.0150 1.07046
2.0200 1.06028
2.0250 1.02932
2.0300 0.99001
2.0350 1.01480
2.0400 1.06348
2.0450 1.10813
2.0500 1.14855
2.0550 1.15036
2.0600 1.13527
2.0650 1.13088
2.0700 1.13418
2.0750 1.09531
2.0800 1.03574
2.0850 1.03966
2.0900 1.07554
2.0950 1.10146
2.1000 1.11892
2.1050 1.14071
2.1100 1.16610
2.1150 1.19446
2.1200 1.22456
2.1250 1.19068
2.1300 1.12535
2.1350 1.10709
2.1400 1.11260
2.1450 1.11741
2.1500 1.12091
2.1550 1.17746
2.1600 1.25561
2.1650 1.26507
2.1700 1.24881
2.1750 1.21974
2.1800 1.18673
2.1850 1.18725
2.1900 1.19815
2.1950 1.17969
2.2000 1.15396
2.2050 1.16049
2.2100 1.17892
2.2150 1.19668
2.2200 1.19788
2.2250 1.14149
2.2300 1.09363
2.2350 1.11282
2.2400 1.13458
2.2450 1.11764
2.2500 1.11552
2.2550 1.15433
2.2600 1.15407
2.2650 1.09845
2.2700 1.07961
2.2750 1.10632
2.2800 1.11652
2.2850 1.10708
2.2900 1.14106
2.2950 1.20264
2.3000 1.19047
2.3050 1.14351
2.3100 1.14033
2.3150 1.15190
2.3200 1.14972
2.3250 1.15178
2.3300 1.19093
2.3350 1.22864
2.3400 1.23390
2.3450 1.24080
2.3500 1.26457
2.3550 1.31776
2.3600 1.39567
2.3650 1.37274
2.3700 1.27923
2.3750 1.29837
2.3800 1.35991
2.3850 1.24128
2.3900 1.08999
2.3950 1.04820
2.4000 1.08562
2.4050 1.21288
2.4200 1.06179
2.4450 0.99689
2.4500 1.02308
2.4550 1.22006
2.4700 1.15336
2.4750 1.04455
2.4800 1.16631
2.4850 1.31316
2.4900 1.34875
2.4950 1.41867
2.5000 1.15601
