Asteroid designations ( Number, Name, Temporary designation): 21321, 1997 AN2, 1985_UW1
Observation was done on (UT) (format YYYY-MM-DD-hh): 2013 - 10 - 21 - 10:15
Observation was made by : Marcel Popescu E-mail; mpopescu@imcce.fr
At observatory with UAI code: 568
Obsv. comments: Solar analog: HD7983; For details and collaboration opportunities contact mpopescu@imcce.fr
The spectrum was published in the article: Unpublished
The normalization of this spectrum was made for the wavelength: 1.250 microns.
Original name of the file was: 21321.txt
Wavelength[um]	Reflectance	sigma(optional)
0.8200 0.73781
0.8250 0.72973
0.8300 0.71503
0.8350 0.70706
0.8400 0.69551
0.8450 0.68671
0.8500 0.67614
0.8550 0.67016
0.8600 0.65402
0.8650 0.64159
0.8700 0.62667
0.8750 0.62393
0.8800 0.62945
0.8850 0.61245
0.8900 0.61723
0.8950 0.61497
0.9000 0.60404
0.9050 0.59283
0.9100 0.59168
0.9150 0.58596
0.9200 0.58363
0.9250 0.58831
0.9300 0.57770
0.9350 0.58800
0.9400 0.59732
0.9450 0.60340
0.9500 0.60422
0.9550 0.59852
0.9600 0.61383
0.9650 0.61963
0.9700 0.62498
0.9750 0.62639
0.9800 0.63967
0.9850 0.65810
0.9900 0.65703
0.9950 0.67576
1.0000 0.68938
1.0050 0.69450
1.0100 0.70755
1.0150 0.71624
1.0200 0.73478
1.0250 0.74976
1.0300 0.75902
1.0350 0.76487
1.0400 0.76968
1.0450 0.78489
1.0500 0.79680
1.0550 0.79855
1.0600 0.80963
1.0650 0.82706
1.0700 0.83226
1.0750 0.83576
1.0800 0.84303
1.0850 0.85147
1.0900 0.85683
1.0950 0.86497
1.1000 0.87371
1.1050 0.87701
1.1100 0.87542
1.1150 0.88919
1.1200 0.88575
1.1250 0.90109
1.1400 0.91607
1.1450 0.91602
1.1500 0.91896
1.1550 0.92251
1.1600 0.94029
1.1650 0.95225
1.1700 0.95769
1.1750 0.96422
1.1800 0.97064
1.1850 0.95419
1.1900 0.96341
1.1950 0.96852
1.2000 0.96342
1.2050 0.97117
1.2100 0.97530
1.2150 0.98997
1.2200 0.97907
1.2250 0.97959
1.2300 0.97889
1.2350 0.96530
1.2400 0.98358
1.2450 0.99447
1.2500 1.00000
1.2550 0.99413
1.2600 0.99149
1.2650 0.98722
1.2700 0.99544
1.2750 0.99874
1.2800 0.99785
1.2850 1.00363
1.2900 1.01992
1.2950 1.01018
1.3000 1.01266
1.3050 1.02327
1.3100 1.01530
1.3150 1.02555
1.3200 1.03173
1.3250 1.03377
1.3300 1.03527
1.3350 1.04558
1.3400 1.04074
1.3550 1.03319
1.3600 1.05267
1.3700 1.02174
1.3750 1.04485
1.3800 1.04382
1.3850 1.03560
1.3900 1.04698
1.4000 1.04441
1.4050 1.02774
1.4100 1.04999
1.4150 1.05558
1.4200 1.04357
1.4250 1.04749
1.4300 1.05016
1.4350 1.05593
1.4400 1.05718
1.4450 1.04184
1.4500 1.04445
1.4550 1.05595
1.4600 1.05942
1.4650 1.05005
1.4700 1.03148
1.4750 1.02874
1.4800 1.02627
1.4850 1.03676
1.4900 1.04254
1.4950 1.03632
1.5000 1.03430
1.5050 1.01969
1.5100 1.02965
1.5150 1.01922
1.5200 1.03097
1.5250 1.00954
1.5300 0.98860
1.5350 1.01734
1.5400 0.99202
1.5450 0.98064
1.5500 1.00581
1.5550 1.01770
1.5600 1.00104
1.5650 0.98942
1.5700 0.98783
1.5750 0.97359
1.5800 0.97113
1.5850 0.96034
1.5900 0.97109
1.5950 0.98660
1.6000 0.96610
1.6050 0.96119
1.6150 0.92149
1.6200 0.94690
1.6250 0.95000
1.6300 0.94606
1.6350 0.93084
1.6400 0.93056
1.6450 0.93135
1.6500 0.91776
1.6550 0.92592
1.6600 0.90680
1.6650 0.88139
1.6700 0.89869
1.6750 0.90208
1.6800 0.90086
1.6850 0.89579
1.6900 0.89270
1.7000 0.87439
1.7050 0.85220
1.7100 0.86032
1.7150 0.88602
1.7200 0.87627
1.7250 0.86352
1.7300 0.86227
1.7350 0.86384
1.7400 0.85493
1.7450 0.84055
1.7500 0.85439
1.7550 0.85847
1.7600 0.85025
1.7650 0.82192
1.7700 0.82023
1.7750 0.82139
1.7800 0.81336
1.7850 0.81002
1.7900 0.80222
1.7950 0.82665
1.8000 0.81206
1.8050 0.81878
1.8100 0.80949
1.8150 0.79102
1.8200 0.80264
1.8250 0.79148
1.8350 0.81607
1.8400 0.76970
1.8450 0.78572
1.8500 0.75861
1.8550 0.79610
1.8600 0.78949
1.8750 0.80729
1.8850 0.81347
1.8900 0.81830
1.8950 0.81507
1.9000 0.78312
1.9050 0.79085
1.9200 0.76266
1.9250 0.73685
1.9300 0.80747
1.9350 0.76453
1.9400 0.74367
1.9450 0.76107
1.9500 0.75736
1.9550 0.75810
1.9600 0.77938
1.9650 0.74338
1.9700 0.74901
1.9750 0.73997
1.9800 0.74851
1.9850 0.76076
1.9900 0.77868
1.9950 0.77412
2.0000 0.74115
2.0100 0.77232
2.0150 0.78444
2.0200 0.75429
2.0250 0.77320
2.0300 0.77374
2.0350 0.78548
2.0400 0.75652
2.0450 0.79723
2.0500 0.74379
2.0600 0.76511
2.0650 0.79140
2.0700 0.77795
2.0750 0.78439
2.0800 0.76742
2.0850 0.78052
2.0900 0.79090
2.0950 0.78074
2.1000 0.77677
2.1050 0.79723
2.1100 0.77077
2.1150 0.80108
2.1200 0.79096
2.1250 0.79000
2.1300 0.79158
2.1350 0.81183
2.1400 0.80091
2.1450 0.79295
2.1500 0.81314
2.1550 0.81622
2.1600 0.81945
2.1650 0.81471
2.1700 0.82572
2.1750 0.82568
2.1800 0.81504
2.1850 0.82361
2.1900 0.85600
2.1950 0.85272
2.2000 0.85851
2.2050 0.84339
2.2100 0.83492
2.2150 0.87462
2.2200 0.87055
2.2250 0.86481
2.2300 0.85948
2.2350 0.84426
2.2400 0.86751
2.2450 0.89369
2.2500 0.89204
2.2550 0.85137
2.2600 0.86983
2.2650 0.89593
2.2700 0.88176
2.2750 0.89999
2.2800 0.89811
2.2850 0.90338
2.2900 0.90848
2.2950 0.88724
2.3000 0.92406
2.3050 0.90679
2.3100 0.92295
2.3150 0.91718
2.3200 0.94867
2.3250 0.92802
2.3300 0.93520
2.3350 0.95027
2.3400 0.91937
2.3500 0.92100
2.3550 0.94898
2.3650 0.93441
2.3700 0.93314
2.3800 0.92298
2.3850 0.94194
2.3900 0.93121
2.4000 0.92314
2.4050 0.92907
2.4250 0.94005
2.4400 0.96294
2.4450 0.97878
2.4500 0.94121
2.4550 0.98939
