Asteroid designations ( Number, Name, Temporary designation): 329437, -, 2002_OA22
Observation was done on (UT) (format YYYY-MM-DD-hh): 2013 - 09 - 21 - 12:10
Observation was made by : Marcel Popescu E-mail; mpopescu@imcce.fr
At observatory with UAI code: 568
Obsv. comments: Solar analog: HD220764; For details and collaboration opportunities contact mpopescu@imcce.fr
The spectrum was published in the article: Unpublished
The normalization of this spectrum was made for the wavelength: 1.250 microns.
Original name of the file was: 329437.txt
Wavelength[um]	Reflectance	sigma(optional)
0.8250 1.06717
0.8300 1.06153
0.8350 1.05870
0.8400 1.05038
0.8450 1.04435
0.8500 1.03872
0.8550 1.02959
0.8600 1.01782
0.8650 1.00768
0.8700 0.99658
0.8750 0.99245
0.8800 0.99045
0.8850 0.98956
0.8900 0.98041
0.8950 0.97377
0.9000 0.97606
0.9050 0.97408
0.9100 0.96284
0.9150 0.95543
0.9200 0.95560
0.9250 0.95786
0.9300 0.94963
0.9350 0.94134
0.9400 0.94053
0.9450 0.93794
0.9500 0.93392
0.9550 0.92937
0.9600 0.92163
0.9650 0.91816
0.9700 0.91701
0.9750 0.91730
0.9800 0.92380
0.9850 0.92537
0.9900 0.91793
0.9950 0.92079
1.0000 0.92249
1.0050 0.91638
1.0100 0.90921
1.0150 0.90801
1.0200 0.90875
1.0250 0.90979
1.0300 0.90618
1.0350 0.90224
1.0400 0.90538
1.0450 0.90549
1.0500 0.91087
1.0550 0.91047
1.0600 0.90822
1.0650 0.90896
1.0700 0.90911
1.0750 0.91634
1.0800 0.91557
1.0850 0.91550
1.0900 0.91924
1.0950 0.91657
1.1000 0.92394
1.1050 0.92930
1.1100 0.92710
1.1150 0.93596
1.1200 0.93263
1.1250 0.93812
1.1300 0.93528
1.1350 0.93736
1.1400 0.94463
1.1450 0.95339
1.1500 0.95251
1.1550 0.96311
1.1600 0.97008
1.1650 0.96885
1.1700 0.97329
1.1750 0.97696
1.1800 0.97160
1.1850 0.96992
1.1900 0.97868
1.1950 0.98116
1.2000 0.97763
1.2050 0.97199
1.2100 0.97916
1.2150 0.98311
1.2200 0.97909
1.2250 0.98662
1.2300 0.98503
1.2350 0.99119
1.2400 0.99631
1.2450 0.99023
1.2500 1.00000
1.2550 0.99882
1.2600 1.00690
1.2650 1.00179
1.2700 1.00090
1.2750 1.00825
1.2800 1.01273
1.2850 1.00451
1.2900 0.99793
1.2950 1.01170
1.3000 1.00742
1.3050 1.01047
1.3100 1.01523
1.3150 1.01306
1.3200 1.02318
1.3250 1.02426
1.3300 1.03117
1.3350 1.04097
1.3400 1.04952
1.3850 1.03424
1.3900 1.05883
1.3950 1.06102
1.4000 1.04060
1.4050 1.05660
1.4250 1.05574
1.4300 1.05635
1.4350 1.06594
1.4450 1.07660
1.4500 1.07290
1.4600 1.08039
1.4650 1.07037
1.4700 1.06709
1.4750 1.07283
1.4800 1.07175
1.4850 1.06814
1.4900 1.07161
1.4950 1.07573
1.5000 1.06425
1.5050 1.06934
1.5100 1.08442
1.5150 1.07945
1.5200 1.08510
1.5250 1.08166
1.5300 1.08007
1.5350 1.06742
1.5400 1.08338
1.5450 1.09030
1.5500 1.08522
1.5550 1.08389
1.5600 1.07959
1.5650 1.07453
1.5700 1.07045
1.5750 1.06683
1.5800 1.07381
1.5850 1.07176
1.5900 1.06823
1.5950 1.07663
1.6000 1.07499
1.6050 1.07661
1.6100 1.07590
1.6150 1.06918
1.6200 1.08464
1.6250 1.09192
1.6300 1.09286
1.6350 1.08995
1.6400 1.08954
1.6450 1.09121
1.6500 1.09746
1.6550 1.08763
1.6600 1.09023
1.6650 1.09020
1.6700 1.09061
1.6750 1.10063
1.6800 1.10171
1.6850 1.10573
1.6900 1.10817
1.6950 1.09978
1.7000 1.10290
1.7050 1.09540
1.7100 1.09172
1.7150 1.10309
1.7200 1.10214
1.7250 1.10608
1.7300 1.10410
1.7350 1.10492
1.7400 1.08801
1.7450 1.09291
1.7500 1.10726
1.7550 1.10648
1.7600 1.09631
1.7650 1.10452
1.7700 1.10837
1.7750 1.10001
1.7800 1.09195
1.7850 1.09552
1.7900 1.09603
1.7950 1.09210
1.8000 1.08571
1.8050 1.09494
1.8100 1.09809
1.8150 1.07914
1.8200 1.10550
1.8300 1.09126
1.8400 1.09819
1.8450 1.09366
1.8500 1.09011
1.8550 1.09934
1.8650 1.06469
1.8900 1.09926
1.8950 1.06964
1.9000 1.06079
1.9050 1.08945
1.9100 1.07867
1.9150 1.07623
1.9200 1.08662
1.9250 1.06876
1.9300 1.07374
1.9350 1.08033
1.9400 1.08682
1.9450 1.09043
1.9500 1.06104
1.9550 1.04904
1.9600 1.06436
1.9650 1.06554
1.9700 1.05510
1.9750 1.06981
1.9800 1.05854
1.9850 1.07569
1.9950 1.07069
2.0050 1.07122
2.0100 1.06244
2.0200 1.06383
2.0250 1.08113
2.0300 1.07329
2.0350 1.07195
2.0400 1.06642
2.0450 1.06695
2.0550 1.05692
2.0600 1.08073
2.0650 1.07556
2.0800 1.07570
2.0850 1.05594
2.0900 1.07164
2.0950 1.07044
2.1000 1.07646
2.1050 1.07386
2.1100 1.06934
2.1150 1.06684
2.1200 1.06582
2.1250 1.07354
2.1300 1.08032
2.1350 1.07424
2.1400 1.07832
2.1450 1.07840
2.1500 1.08954
2.1550 1.07489
2.1600 1.07260
2.1650 1.06431
2.1700 1.07151
2.1750 1.08038
2.1800 1.07630
2.1850 1.06710
2.1900 1.07528
2.1950 1.08911
2.2000 1.07547
2.2050 1.07822
2.2100 1.09210
2.2150 1.07398
2.2200 1.09220
2.2250 1.08211
2.2300 1.06857
2.2350 1.06713
2.2400 1.07164
2.2450 1.07329
2.2550 1.06827
2.2600 1.08467
2.2650 1.08972
2.2700 1.08763
2.2750 1.09626
2.2800 1.10694
2.2850 1.08927
2.2900 1.09489
2.2950 1.09280
2.3000 1.08618
2.3050 1.10352
2.3100 1.11150
2.3150 1.10499
2.3250 1.11005
2.3300 1.09920
2.3350 1.08937
2.3400 1.09846
2.3450 1.10701
2.3500 1.08692
2.3550 1.09857
2.3600 1.11863
2.3650 1.09801
2.3700 1.11430
2.3750 1.12298
2.3800 1.11539
2.3850 1.11683
2.3900 1.12009
2.3950 1.11174
2.4000 1.12505
2.4050 1.11926
2.4100 1.12361
2.4150 1.10233
2.4200 1.11853
2.4250 1.11524
2.4300 1.12644
2.4350 1.13680
2.4400 1.15509
2.4450 1.13531
2.4550 1.14067
2.4600 1.15775
2.4650 1.14822
2.4900 1.17138
