Asteroid designations ( Number, Name, Temporary designation): 251346, -, 2007_SJ
Observation was done on (UT) (format YYYY-MM-DD-hh): 2013 - 10 - 21 - 12:15
Observation was made by : Marcel Popescu E-mail; mpopescu@imcce.fr
At observatory with UAI code: 568
Obsv. comments: Solar analog: HD30854; For details and collaboration opportunities contact mpopescu@imcce.fr
The spectrum was published in the article: Unpublished
The normalization of this spectrum was made for the wavelength: 1.250 microns.
Original name of the file was: 251346.txt
Wavelength[um]	Reflectance	sigma(optional)
0.8300 0.85008
0.8350 0.85014
0.8400 0.84924
0.8450 0.83649
0.8500 0.82727
0.8550 0.82388
0.8600 0.82404
0.8650 0.81576
0.8750 0.81469
0.8800 0.81144
0.8850 0.79644
0.8900 0.77853
0.8950 0.79864
0.9000 0.79117
0.9050 0.78731
0.9100 0.80429
0.9150 0.79558
0.9200 0.79229
0.9250 0.78109
0.9300 0.77875
0.9350 0.77782
0.9400 0.79559
0.9450 0.80379
0.9500 0.80041
0.9550 0.81388
0.9600 0.81214
0.9650 0.81639
0.9700 0.81848
0.9750 0.82623
0.9800 0.80954
0.9850 0.82219
0.9900 0.82567
0.9950 0.82573
1.0000 0.82899
1.0050 0.82729
1.0100 0.83766
1.0150 0.83691
1.0200 0.84334
1.0250 0.82484
1.0300 0.83836
1.0350 0.84310
1.0400 0.84251
1.0450 0.84282
1.0500 0.85008
1.0550 0.85363
1.0600 0.85157
1.0650 0.85384
1.0700 0.85844
1.0750 0.86012
1.0800 0.85969
1.0850 0.86874
1.0900 0.88313
1.0950 0.88023
1.1000 0.88027
1.1050 0.87658
1.1100 0.89590
1.1150 0.91324
1.1200 0.90532
1.1250 0.91384
1.1300 0.92194
1.1350 0.91908
1.1400 0.90597
1.1450 0.91235
1.1500 0.94304
1.1550 0.92810
1.1600 0.93104
1.1650 0.93963
1.1700 0.93811
1.1750 0.94487
1.1800 0.96030
1.1850 0.97323
1.1950 0.97848
1.2000 0.97673
1.2050 0.98194
1.2100 0.98636
1.2150 0.98183
1.2200 0.97424
1.2250 0.97995
1.2300 0.99531
1.2350 0.98847
1.2400 0.97613
1.2450 1.00703
1.2500 1.00000
1.2550 0.99139
1.2600 1.00295
1.2650 1.01555
1.2700 1.01353
1.2750 0.98826
1.2800 1.01345
1.2850 1.01231
1.2900 0.99373
1.2950 1.00087
1.3000 1.01278
1.3050 1.00597
1.3100 1.01359
1.3150 1.00233
1.3200 1.01862
1.3250 1.01483
1.3300 1.04307
1.3350 1.03000
1.3400 1.02300
1.3450 1.03394
1.3600 1.07564
1.3750 1.01856
1.3850 1.05797
1.3900 1.04046
1.3950 1.06338
1.4000 1.08264
1.4050 1.08809
1.4100 1.08158
1.4150 1.10258
1.4200 1.10920
1.4250 1.08010
1.4300 1.10362
1.4350 1.12150
1.4400 1.13036
1.4450 1.12601
1.4500 1.11770
1.4550 1.08822
1.4750 1.14742
1.4800 1.12719
1.4850 1.10848
1.4900 1.11349
1.4950 1.11463
1.5000 1.12489
1.5050 1.11993
1.5100 1.11131
1.5150 1.13505
1.5200 1.14113
1.5250 1.13744
1.5300 1.09317
1.5350 1.12430
1.5400 1.17049
1.5450 1.18862
1.5500 1.17055
1.5550 1.16945
1.5600 1.19072
1.5650 1.17012
1.5700 1.18382
1.5750 1.18114
1.5800 1.15564
1.5850 1.15661
1.5900 1.15374
1.5950 1.15281
1.6000 1.11223
1.6050 1.13615
1.6100 1.10616
1.6150 1.13374
1.6200 1.16422
1.6250 1.15457
1.6300 1.15126
1.6350 1.15213
1.6400 1.14527
1.6450 1.15487
1.6500 1.16589
1.6550 1.14323
1.6600 1.13387
1.6650 1.13774
1.6700 1.15300
1.6750 1.12860
1.6800 1.15536
1.6850 1.17324
1.6900 1.15119
1.6950 1.22579
1.7000 1.14157
1.7050 1.15340
1.7100 1.14083
1.7150 1.12504
1.7200 1.13332
1.7250 1.15219
1.7300 1.17425
1.7350 1.14805
1.7400 1.17500
1.7450 1.17016
1.7500 1.13362
1.7550 1.14745
1.7600 1.12955
1.7650 1.14758
1.7700 1.14910
1.7750 1.14171
1.7800 1.15512
1.7850 1.14079
1.7900 1.12384
1.7950 1.10833
1.8000 1.12881
1.8050 1.14603
1.8100 1.05667
1.8150 1.11286
1.8200 1.12016
1.8250 1.09733
1.8300 1.08682
1.8350 1.14493
1.8450 1.12631
1.8600 1.04074
1.8650 1.15398
1.8750 1.12958
1.8850 1.17850
1.8900 1.18294
1.8950 1.13819
1.9000 1.08064
1.9100 1.16831
1.9150 1.13950
1.9200 1.00768
1.9250 1.15735
1.9300 1.10210
1.9350 1.16133
1.9400 1.15538
1.9450 1.13167
1.9500 1.17686
1.9550 1.14437
1.9600 1.12236
1.9650 1.06074
1.9700 1.07128
1.9750 1.13139
1.9800 1.07646
1.9850 1.04724
1.9900 1.01924
1.9950 1.08786
2.0000 1.12903
2.0050 1.02977
2.0100 1.11444
2.0200 1.10806
2.0250 1.05720
2.0300 1.12979
2.0350 1.14986
2.0400 1.11102
2.0450 1.12493
2.0500 1.10108
2.0550 1.08819
2.0600 1.08552
2.0650 1.10983
2.0700 1.10145
2.0750 1.08856
2.0800 1.08492
2.0850 1.08707
2.0900 1.12116
2.0950 1.05266
2.1000 1.03662
2.1050 1.07954
2.1100 1.06885
2.1150 1.12561
2.1200 1.09263
2.1250 1.09359
2.1300 1.10376
2.1350 1.14907
2.1400 1.12772
2.1450 1.06567
2.1500 1.12128
2.1550 1.14867
2.1650 1.18107
2.1700 1.13561
2.1750 1.15488
2.1800 1.15746
2.1850 1.16449
2.1900 1.07884
2.1950 1.07828
2.2000 1.10714
2.2050 1.11569
2.2100 1.14363
2.2150 1.18262
2.2200 1.12973
2.2250 1.09080
2.2300 1.03837
2.2350 1.10555
2.2400 1.10459
2.2450 1.07980
2.2500 1.09361
2.2550 1.11142
2.2600 1.09123
2.2650 1.08174
2.2700 1.11098
2.2750 1.10702
2.2800 1.07807
2.2850 1.09591
2.2900 1.09564
2.2950 1.11170
2.3000 1.11319
2.3050 1.17095
2.3100 1.17250
2.3150 1.14167
2.3200 1.11853
2.3250 1.13679
2.3300 1.15828
2.3500 1.14966
2.3700 1.15503
2.3750 1.11861
2.3800 1.02274
2.3850 1.07670
2.3900 1.14090
2.3950 1.21065
2.4000 1.10714
2.4050 1.08099
2.4100 1.16643
2.4150 1.18728
2.4200 1.18274
