Asteroid designations ( Number, Name, Temporary designation): 2806, Graz, 1953_GG
Observation was done on (UT) (format YYYY-MM-DD-hh): 2013 - 10 - 21 - 09:30
Observation was made by : Marcel Popescu E-mail; mpopescu@imcce.fr
At observatory with UAI code: 568
Obsv. comments: Solar analog: HD223238; For details and collaboration opportunities contact mpopescu@imcce.fr
The spectrum was published in the article: Unpublished
The normalization of this spectrum was made for the wavelength: 1.250 microns.
Original name of the file was: 2806.txt
Wavelength[um]	Reflectance	sigma(optional)
0.8200 0.74258
0.8250 0.73872
0.8300 0.73812
0.8350 0.74002
0.8400 0.74700
0.8450 0.76157
0.8500 0.75495
0.8550 0.77810
0.8600 0.76879
0.8650 0.75797
0.8700 0.76491
0.8750 0.75555
0.8800 0.76413
0.8850 0.77145
0.8900 0.77435
0.8950 0.77835
0.9000 0.78120
0.9050 0.78904
0.9100 0.79112
0.9150 0.79899
0.9200 0.80020
0.9250 0.81336
0.9300 0.81847
0.9350 0.80994
0.9400 0.80558
0.9450 0.80580
0.9500 0.80444
0.9550 0.80791
0.9600 0.82858
0.9650 0.82353
0.9700 0.82224
0.9750 0.83269
0.9800 0.84875
0.9850 0.84380
0.9900 0.85970
0.9950 0.85471
1.0000 0.86623
1.0050 0.86754
1.0100 0.86632
1.0150 0.86773
1.0200 0.85569
1.0250 0.88077
1.0300 0.88844
1.0350 0.88308
1.0400 0.88912
1.0450 0.88477
1.0500 0.88626
1.0550 0.88563
1.0600 0.89124
1.0650 0.90062
1.0700 0.89866
1.0750 0.88861
1.0800 0.89739
1.0850 0.91166
1.0900 0.91849
1.0950 0.91426
1.1000 0.93290
1.1050 0.93049
1.1100 0.91806
1.1150 0.90984
1.1200 0.91735
1.1300 0.93421
1.1350 0.94382
1.1400 0.94726
1.1450 0.93373
1.1500 0.94186
1.1550 0.96896
1.1600 0.96189
1.1650 0.95220
1.1700 0.98551
1.1750 0.96816
1.1800 0.97067
1.1850 0.95976
1.1900 0.97922
1.1950 0.98583
1.2000 0.97967
1.2050 0.98518
1.2100 0.96906
1.2150 0.97632
1.2200 0.96701
1.2250 0.98140
1.2300 0.99366
1.2350 0.98776
1.2400 0.99686
1.2450 1.00288
1.2550 1.00000
1.2600 0.98947
1.2650 1.01196
1.2700 0.98902
1.2800 0.99310
1.2850 0.99591
1.2900 1.04212
1.2950 1.03267
1.3000 1.03149
1.3050 1.03024
1.3100 1.02781
1.3150 1.02124
1.3200 1.03542
1.3250 1.05691
1.3300 1.05393
1.3350 1.03089
1.3400 1.02755
1.3650 1.02103
1.3700 1.09028
1.3750 1.09121
1.3850 1.09852
1.3900 1.06164
1.3950 1.05684
1.4000 1.03258
1.4050 1.03901
1.4100 1.06792
1.4150 1.06902
1.4200 1.05336
1.4250 1.07963
1.4300 1.07833
1.4350 1.08871
1.4400 1.09543
1.4450 1.08516
1.4500 1.05995
1.4550 1.07997
1.4600 1.10153
1.4650 1.10277
1.4700 1.08500
1.4750 1.12418
1.4800 1.12324
1.4850 1.11136
1.4900 1.11343
1.4950 1.10492
1.5000 1.09566
1.5050 1.09247
1.5100 1.11727
1.5150 1.10386
1.5200 1.11372
1.5250 1.13698
1.5300 1.15625
1.5350 1.14452
1.5400 1.12971
1.5450 1.14528
1.5500 1.14712
1.5550 1.11781
1.5600 1.10571
1.5650 1.12430
1.5700 1.15914
1.5750 1.11356
1.5800 1.12901
1.5850 1.20590
1.5900 1.19318
1.5950 1.14918
1.6000 1.17919
1.6050 1.16457
1.6100 1.16572
1.6150 1.16651
1.6200 1.16430
1.6250 1.15039
1.6300 1.20940
1.6350 1.18180
1.6400 1.16504
1.6450 1.15779
1.6500 1.21151
1.6550 1.23788
1.6600 1.17533
1.6650 1.21012
1.6700 1.22326
1.6750 1.22150
1.6800 1.24488
1.6850 1.20765
1.6900 1.22198
1.6950 1.25690
1.7000 1.22295
1.7050 1.18581
1.7100 1.20585
1.7150 1.18835
1.7200 1.20777
1.7250 1.23746
1.7300 1.20701
1.7350 1.19631
1.7400 1.23851
1.7450 1.26862
1.7500 1.27570
1.7550 1.24355
1.7600 1.23631
1.7650 1.26787
1.7700 1.24864
1.7750 1.24301
1.7800 1.24432
1.7850 1.28829
1.7900 1.19918
1.7950 1.20630
1.8000 1.25753
1.8050 1.23433
1.8100 1.24543
1.8150 1.25157
1.8200 1.24473
1.8250 1.25156
1.8300 1.21618
1.8350 1.22369
1.8400 1.23786
1.8500 1.23592
1.8550 1.33803
1.8650 1.28610
1.8700 1.26269
1.8750 1.30046
1.8800 1.31791
1.8850 1.27446
1.8900 1.28626
1.8950 1.34765
1.9000 1.34795
1.9050 1.36072
1.9100 1.37144
1.9150 1.29582
1.9350 1.31808
1.9400 1.33060
1.9450 1.33079
1.9500 1.34421
1.9550 1.35396
1.9600 1.32221
1.9650 1.37875
1.9700 1.33981
1.9750 1.36201
1.9800 1.34096
1.9850 1.40928
1.9900 1.37832
1.9950 1.35029
2.0000 1.32821
2.0150 1.32725
2.0200 1.43267
2.0250 1.41446
2.0300 1.35149
2.0350 1.36377
2.0400 1.32702
2.0500 1.35750
2.0550 1.34328
2.0600 1.37836
2.0650 1.39149
2.0700 1.38161
2.0750 1.42235
2.0800 1.39304
2.0850 1.37657
2.0900 1.42454
2.0950 1.41931
2.1000 1.38801
2.1050 1.35533
2.1100 1.34784
2.1150 1.41207
2.1200 1.43409
2.1250 1.41083
2.1300 1.39364
2.1350 1.39510
2.1400 1.39757
2.1450 1.36960
2.1550 1.41024
2.1600 1.41103
2.1650 1.40122
2.1700 1.45107
2.1750 1.44028
2.1800 1.44698
2.1850 1.41280
2.1900 1.43302
2.1950 1.42753
2.2000 1.45066
2.2050 1.40547
2.2100 1.45787
2.2150 1.43224
2.2200 1.44215
2.2250 1.47348
2.2350 1.50205
2.2400 1.47102
2.2450 1.45324
2.2500 1.42289
2.2550 1.43270
2.2600 1.42130
2.2650 1.43272
2.2700 1.40721
2.2750 1.44940
2.2800 1.49156
2.2850 1.47183
2.2900 1.44331
2.2950 1.42579
2.3000 1.46923
2.3050 1.45135
2.3100 1.47035
2.3150 1.54248
2.3200 1.48008
2.3250 1.46874
2.3300 1.52742
2.3350 1.55625
2.3400 1.51070
2.3450 1.56404
2.3500 1.57654
2.3550 1.47410
2.3600 1.50845
2.3700 1.49276
2.3800 1.49046
2.3900 1.56994
2.3950 1.57465
2.4000 1.53902
2.4050 1.50007
2.4100 1.49315
2.4150 1.58661
2.4200 1.55685
2.4250 1.56284
2.4350 1.44031
2.4450 1.49949
2.4500 1.46435
2.4600 1.42134
2.4700 1.29117
