Asteroid designations ( Number, Name, Temporary designation): 2806, Graz, 1953_GG
Observation was done on (UT) (format YYYY-MM-DD-hh): 2013 - 09 - 21 - 09:28
Observation was made by : Marcel Popescu E-mail; mpopescu@imcce.fr
At observatory with UAI code: 568
Obsv. comments: Solar analog: HD220764; For details and collaboration opportunities contact mpopescu@imcce.fr
The spectrum was published in the article: Unpublished
The normalization of this spectrum was made for the wavelength: 1.250 microns.
Original name of the file was: 2806.txt
Wavelength[um]	Reflectance	sigma(optional)
0.8250 0.79663
0.8300 0.80604
0.8350 0.80653
0.8400 0.80418
0.8450 0.81254
0.8500 0.81048
0.8550 0.80116
0.8600 0.81009
0.8650 0.80847
0.8700 0.80897
0.8750 0.82581
0.8800 0.82109
0.8850 0.82201
0.8950 0.82732
0.9000 0.83199
0.9050 0.83303
0.9100 0.83730
0.9150 0.83347
0.9200 0.84133
0.9250 0.84812
0.9300 0.84768
0.9350 0.85781
0.9450 0.85639
0.9500 0.86400
0.9550 0.87033
0.9600 0.86158
0.9650 0.86170
0.9700 0.87063
0.9750 0.87069
0.9800 0.87243
0.9850 0.88347
0.9900 0.87837
0.9950 0.88466
1.0000 0.89023
1.0050 0.88978
1.0100 0.88682
1.0150 0.89165
1.0200 0.90044
1.0250 0.90648
1.0300 0.90622
1.0350 0.90204
1.0400 0.90749
1.0450 0.91554
1.0500 0.91627
1.0550 0.92241
1.0600 0.91805
1.0650 0.92178
1.0700 0.92078
1.0750 0.92336
1.0800 0.93219
1.0850 0.93332
1.0900 0.92914
1.0950 0.93179
1.1000 0.93560
1.1050 0.93798
1.1100 0.94098
1.1150 0.94377
1.1200 0.94090
1.1250 0.94466
1.1300 0.94239
1.1400 0.94891
1.1450 0.96025
1.1500 0.96283
1.1550 0.96897
1.1650 0.97394
1.1700 0.96890
1.1750 0.97655
1.1800 0.96681
1.1850 0.97350
1.1900 0.98005
1.1950 0.98131
1.2000 0.97473
1.2050 0.97725
1.2100 0.98087
1.2150 0.98593
1.2200 0.97996
1.2250 0.99140
1.2300 0.99893
1.2350 0.99942
1.2400 0.99892
1.2450 0.99618
1.2500 1.00000
1.2550 1.00131
1.2600 1.01081
1.2650 1.01357
1.2700 1.01021
1.2750 1.01313
1.2800 1.01415
1.2850 1.00374
1.2900 1.00652
1.2950 1.01458
1.3000 1.00954
1.3050 1.01824
1.3100 1.02979
1.3150 1.02206
1.3200 1.02923
1.3250 1.03505
1.3300 1.03695
1.3350 1.03880
1.3400 1.04397
1.3450 1.05380
1.3500 1.05401
1.3750 1.05194
1.3800 1.04154
1.3850 1.05084
1.4000 1.04994
1.4050 1.05279
1.4100 1.06983
1.4250 1.06502
1.4300 1.06501
1.4350 1.06660
1.4400 1.07839
1.4450 1.07131
1.4500 1.07528
1.4600 1.07355
1.4650 1.07199
1.4700 1.07390
1.4750 1.08240
1.4800 1.07992
1.4850 1.06968
1.4900 1.07995
1.4950 1.08064
1.5000 1.07276
1.5050 1.08288
1.5100 1.09861
1.5150 1.09025
1.5200 1.09034
1.5250 1.09163
1.5300 1.10029
1.5350 1.08963
1.5400 1.11086
1.5450 1.11480
1.5500 1.09653
1.5550 1.09946
1.5600 1.09853
1.5650 1.10931
1.5700 1.09974
1.5750 1.09072
1.5800 1.10249
1.5850 1.10227
1.5900 1.10251
1.5950 1.10610
1.6000 1.10857
1.6050 1.10679
1.6100 1.11758
1.6150 1.11511
1.6200 1.11815
1.6250 1.13668
1.6300 1.12813
1.6350 1.13678
1.6400 1.12580
1.6450 1.13061
1.6500 1.14359
1.6550 1.12886
1.6600 1.14431
1.6650 1.14369
1.6700 1.14193
1.6750 1.14234
1.6800 1.15067
1.6850 1.14424
1.6900 1.14449
1.6950 1.13970
1.7000 1.13896
1.7050 1.14462
1.7100 1.14576
1.7150 1.15670
1.7200 1.15469
1.7250 1.15653
1.7300 1.15538
1.7350 1.15093
1.7400 1.15517
1.7450 1.16294
1.7500 1.16417
1.7550 1.15847
1.7600 1.16316
1.7650 1.16393
1.7700 1.16611
1.7750 1.16823
1.7800 1.16487
1.7850 1.17984
1.7900 1.18090
1.7950 1.17609
1.8000 1.17200
1.8050 1.17797
1.8100 1.18888
1.8150 1.18424
1.8200 1.20189
1.8300 1.18946
1.8400 1.17670
1.8450 1.19820
1.8500 1.21087
1.8550 1.22287
1.8650 1.21096
1.8700 1.18652
1.8750 1.20082
1.8800 1.23347
1.8850 1.22234
1.8900 1.23215
1.8950 1.20678
1.9000 1.21309
1.9050 1.21553
1.9100 1.22804
1.9150 1.23237
1.9200 1.23909
1.9250 1.22238
1.9300 1.23125
1.9350 1.25615
1.9400 1.26364
1.9450 1.25621
1.9500 1.25374
1.9550 1.25541
1.9600 1.26432
1.9650 1.25616
1.9700 1.24516
1.9750 1.26095
1.9800 1.25469
1.9850 1.25342
1.9900 1.28560
1.9950 1.26511
2.0050 1.26207
2.0100 1.27023
2.0200 1.26064
2.0250 1.28721
2.0300 1.28047
2.0350 1.28349
2.0400 1.27116
2.0450 1.29029
2.0500 1.26880
2.0550 1.26790
2.0600 1.29445
2.0650 1.30631
2.0800 1.29426
2.0850 1.28243
2.0900 1.29197
2.0950 1.30102
2.1000 1.30261
2.1050 1.30134
2.1100 1.29905
2.1150 1.29517
2.1200 1.29752
2.1250 1.33134
2.1300 1.31772
2.1350 1.29981
2.1400 1.32452
2.1450 1.31425
2.1500 1.31540
2.1550 1.30156
2.1600 1.31720
2.1650 1.31949
2.1700 1.32081
2.1750 1.32322
2.1800 1.31186
2.1850 1.32222
2.1900 1.33207
2.1950 1.34806
2.2000 1.31666
2.2050 1.33746
2.2100 1.31491
2.2150 1.32117
2.2200 1.34477
2.2250 1.32783
2.2350 1.31486
2.2400 1.32157
2.2450 1.32354
2.2500 1.33833
2.2550 1.34184
2.2600 1.35229
2.2650 1.35332
2.2750 1.35848
2.2800 1.36795
2.2900 1.37113
2.2950 1.33765
2.3000 1.35425
2.3050 1.38863
2.3100 1.38486
2.3150 1.37590
2.3250 1.35064
2.3300 1.37536
2.3350 1.38251
2.3400 1.38550
2.3450 1.39480
2.3500 1.38204
2.3550 1.38972
2.3650 1.40702
2.3700 1.37920
2.3800 1.42144
2.3850 1.39883
2.3900 1.40715
2.4050 1.39897
2.4100 1.39526
2.4200 1.38791
2.4350 1.41455
2.4500 1.37410
2.4600 1.36319
2.4650 1.37811
2.4750 1.34636
2.4850 1.34205
