Asteroid designations ( Number, Name, Temporary designation): 4903, Ichikawa,  1989 UD, J89U00D, 1953 FU, J53F00U, 1972 TM1, J72T01M, 1977 OG, J77O00G, 1980 BU4, J80B04U, 1983 TG, J83T00G
Observation was done on (UT) (format YYYY-MM-DD-hh): 2012 - 12 - 18 - 02:30
Observation was made by : Fornasier Sonia E-mail; sonia.fornasier@obspm.fr
At observatory with UAI code: 950
Obsv. comments: uploaded by Simon Anghel
The spectrum was published in the article: http://adsabs.harvard.edu/abs/2016Icar..269....1F
The normalization of this spectrum was made for the wavelength: 0.550 microns.
Original name of the file was: 4903_Ichikawa.csv
Wavelength[um]	Reflectance	sigma(optional)
0.4000000 0.95751
0.4050000 0.95850
0.4100000 0.99209
0.4150000 0.98221
0.4200000 0.96739
0.4250000 0.94960
0.4300000 0.96443
0.4350000 0.95949
0.4400000 0.98617
0.4450000 0.98221
0.4500000 0.98419
0.4550000 0.99012
0.4600000 0.99111
0.4650000 1.00593
0.4700000 1.00988
0.4750000 0.99506
0.4800000 0.98221
0.4850000 1.00692
0.4900000 0.99901
0.4950000 0.99308
0.5000000 1.00791
0.5050000 0.99704
0.5100000 0.99704
0.5150000 1.00791
0.5200000 0.99111
0.5250000 1.01087
0.5300000 0.99802
0.5350000 0.98617
0.5400000 1.01581
0.5450000 0.98715
0.5500000 1.00000
0.5550000 0.99209
0.5600000 0.99012
0.5650000 1.01087
0.5700000 1.00692
0.5750000 0.97925
0.5800000 0.98617
0.5850000 0.98518
0.5900000 0.98123
0.5950000 0.98024
0.6000000 0.98617
0.6050000 0.98024
0.6100000 0.98221
0.6150000 0.98617
0.6200000 0.98320
0.6250000 0.97628
0.6300000 0.97826
0.6350000 0.98617
0.6400000 0.97826
0.6450000 0.97530
0.6500000 0.96838
0.6550000 0.97727
0.6600000 0.96344
0.6650000 0.97233
0.6700000 0.97530
0.6750000 0.96146
0.6800000 0.97431
0.6850000 0.96542
0.6900000 0.97530
0.6950000 0.95949
0.7000000 0.97134
0.7050000 0.96739
0.7100000 0.96838
0.7150000 0.96443
0.7200000 0.96640
0.7250000 0.95257
0.7300000 0.96443
0.7350000 0.96245
0.7400000 0.96838
0.7450000 0.96640
0.7500000 0.96245
0.7550000 0.97332
0.7600000 0.96245
0.7650000 0.96443
0.7700000 0.96245
0.7750000 0.95356
0.7800000 0.95257
0.7850000 0.95455
0.7900000 0.96344
0.7950000 0.95455
0.8000000 0.95356
0.8050000 0.95850
0.8100000 0.96344
0.8150000 0.94466
0.8200000 0.95553
0.8250000 0.94269
0.8300000 0.95949
0.8350000 0.97134
0.8400000 0.93281
0.8450000 0.95059
0.8500000 0.97134
0.8550000 0.95751
0.8600000 0.98518
0.8650000 0.92885
0.8700000 0.94269
0.8750000 0.91403
0.8800000 0.95257
0.8850000 0.91601
0.8900000 0.99209
0.8950000 0.94368
0.9000000 0.90613
0.9050000 0.94071
0.9100000 0.93676
0.9150000 0.92885
0.9200000 0.91008
0.9250000 0.97233
0.9300000 0.99704
0.9350000 0.97233
0.9400000 0.96739
0.9450000 0.99111
0.9500000 0.95652
0.9550000 0.97134
0.9600000 0.95652
0.9650000 0.93281
0.9700000 0.94565
0.9750000 0.93775
0.9800000 0.94763
0.9850000 0.93083
0.9900000 0.94862
0.9950000 0.95257
1.0000000 0.94368
1.0050000 0.96542
1.0100000 0.95850
1.0150000 0.94763
1.0200000 0.96443
1.0250000 0.96838
1.0300000 0.96344
1.0350000 0.96937
1.0400000 0.97036
1.0450000 0.97036
1.0500000 0.95553
1.0550000 0.94269
1.0600000 0.93281
1.0650000 0.92490
1.0700000 0.94071
1.0750000 0.92885
1.0800000 0.94664
1.0850000 0.96838
1.0900000 0.96739
1.0950000 0.95158
1.1000000 0.93676
1.1050000 0.95257
1.1100000 0.96838
1.1150000 0.97925
1.1200000 0.98913
1.1250000 0.99802
1.1300000 0.99012
1.1350000 0.97925
1.1400000 0.97727
1.1450000 0.98221
1.1500000 0.99605
1.1550000 0.99407
1.1600000 0.94763
1.1650000 0.97530
1.1700000 0.99605
1.1750000 1.00494
1.1800000 1.00000
1.1850000 0.98320
1.1900000 0.97036
1.1950000 0.98123
1.2000000 1.00000
1.2050000 1.00198
1.2100000 0.97036
1.2150000 0.97134
1.2200000 0.97925
1.2250000 0.98518
1.2300000 1.00198
1.2350000 1.00791
1.2400000 0.98320
1.2450000 0.96542
1.2500000 0.96542
1.2550000 0.98419
1.2600000 1.00198
1.2650000 1.01680
1.2700000 1.00692
1.2750000 0.99704
1.2800000 1.01383
1.2850000 1.01087
1.2900000 0.99704
1.2950000 0.99308
1.3000000 0.99704
1.3050000 1.00889
1.3100000 1.01976
1.4950000 1.04941
1.5000000 1.03953
1.5050000 1.03458
1.5100000 1.04150
1.5150000 1.06324
1.5200000 1.07708
1.5250000 1.08004
1.5300000 1.07510
1.5350000 1.06522
1.5400000 1.05731
1.5450000 1.07609
1.5500000 1.09190
1.5550000 1.06719
1.5600000 1.04051
1.5650000 1.02569
1.5700000 1.01877
1.5750000 1.05040
1.5800000 1.07708
1.5850000 1.07213
1.5900000 1.06522
1.5950000 1.06028
1.6000000 1.05632
1.6050000 1.06126
1.6100000 1.06126
1.6150000 1.04842
1.6200000 1.04249
1.6250000 1.06225
1.6300000 1.07708
1.6350000 1.08794
1.6400000 1.08794
1.6450000 1.06719
1.6500000 1.03953
1.6550000 1.04249
1.6600000 1.05237
1.6650000 1.05731
1.6700000 1.06126
1.6750000 1.07213
1.6800000 1.08300
1.6850000 1.07016
1.6900000 1.05632
1.6950000 1.05336
1.7000000 1.06423
1.7050000 1.07016
1.7100000 1.07905
1.7150000 1.08696
1.7200000 1.09289
1.7250000 1.11265
1.7300000 1.13340
1.7350000 1.12945
1.7400000 1.10375
1.7450000 1.09091
1.7500000 1.11067
1.7550000 1.11660
1.7600000 1.10771
1.7650000 1.11166
1.7700000 1.13636
1.7750000 1.15217
1.7800000 1.15613
1.7850000 1.15514
1.7900000 1.13933
1.7950000 1.12846
2.0400000 1.20455
2.0450000 1.18379
2.0500000 1.16304
2.0550000 1.14822
2.0600000 1.13735
2.0650000 1.13043
2.0700000 1.12945
2.0750000 1.13340
2.0800000 1.12253
2.0850000 1.08004
2.0900000 1.03458
2.0950000 1.04842
2.1000000 1.06719
2.1050000 1.14526
2.1100000 1.18676
2.1150000 1.14822
2.1200000 1.06324
2.1250000 1.04545
2.1300000 1.04051
2.1350000 1.15217
2.1400000 1.19368
2.1450000 1.08004
2.1500000 0.97628
2.1550000 1.12253
2.1600000 1.19170
2.1650000 1.13538
2.1700000 1.06423
2.1750000 1.08794
2.1800000 1.09289
2.1850000 1.04941
2.1900000 1.02372
2.1950000 1.02866
2.2000000 1.02470
2.2050000 0.99901
2.2100000 1.01383
2.2150000 1.06917
