Asteroid designations ( Number, Name, Temporary designation): 2867, Steins, 1969_VC
Observation was done on (UT) (format YYYY-MM-DD-hh): 2006 - 12 - 22 - 13:40
Observation was made by : Birlan, Nedelcu E-mail; birlan@imcce.fr
At observatory with UAI code: 568
The spectrum was published in the article: http://adsabs.harvard.edu/abs/2007A%26A...473L..33N
Obsv. comments:
The normalization of this spectrum was made for the wavelength: 1.250 microns.
Old name of the file was: sp57.FIN
Wavelength[um]	Reflectance	sigma(optional)
0.820 0.94859
0.825 0.93926
0.830 0.93827
0.835 0.94224
0.840 0.92696
0.845 0.92894
0.850 0.93728
0.855 0.94780
0.860 0.94244
0.865 0.94631
0.870 0.95455
0.875 0.93360
0.880 0.93162
0.885 0.94601
0.890 0.93837
0.895 0.91415
0.900 0.91832
0.905 0.95425
0.910 0.92527
0.915 0.92040
0.920 0.92815
0.925 0.93648
0.930 0.93311
0.935 0.92437
0.940 0.91892
0.945 0.92170
0.950 0.93311
0.955 0.94154
0.960 0.93202
0.965 0.94571
0.970 0.95018
0.975 0.95355
0.980 0.94204
0.985 0.94611
0.990 0.95683
0.995 0.96765
1.000 0.96100
1.005 0.96199
1.010 0.96755
1.015 0.97132
1.020 0.97231
1.025 0.97191
1.030 0.96973
1.035 0.96963
1.040 0.96169
1.045 0.96784
1.050 0.96755
1.055 0.95653
1.060 0.96993
1.065 0.96497
1.070 0.96159
1.075 0.96477
1.080 0.98104
1.085 0.98988
1.090 0.97936
1.095 0.97181
1.100 0.99672
1.105 0.98551
1.110 0.97886
1.115 0.98164
1.120 0.98323
1.125 0.99027
1.130 0.98154
1.135 1.00337
1.140 1.00079
1.145 0.98928
1.150 0.99950
1.155 0.99980
1.160 0.98998
1.165 0.99077
1.170 1.00248
1.175 0.99792
1.180 0.98640
1.185 0.98968
1.190 0.99335
1.195 0.98809
1.200 0.98283
1.205 0.99722
1.210 1.00298
1.215 0.98849
1.220 0.98442
1.225 0.99424
1.230 0.98988
1.235 0.99901
1.240 0.99782
1.245 0.99524
1.250 1.00000
1.255 0.98620
1.260 0.98928
1.265 0.99087
1.270 1.00457
1.275 0.99931
1.280 0.98184
1.285 0.99841
1.290 1.01171
1.295 1.00536
1.300 0.98819
1.305 0.98869
1.310 0.99871
1.315 1.00238
1.320 0.99702
1.325 0.98720
1.330 0.99742
1.335 0.99057
1.340 0.98660
1.345 1.00923
1.355 0.98809
1.370 1.01112
1.375 1.00973
1.380 1.00705
1.385 1.00447
1.390 1.01449
1.395 1.01330
1.400 1.02223
1.405 0.99573
1.420 1.00705
1.425 1.01131
1.430 0.99792
1.435 0.99037
1.440 1.00248
1.445 1.00814
1.450 1.00169
1.455 1.01389
1.460 1.01092
1.465 1.01439
1.470 1.02283
1.475 1.00000
1.480 0.98660
1.485 0.99752
1.490 0.99137
1.495 0.98819
1.500 0.99603
1.505 1.02094
1.510 1.03305
1.515 1.01509
1.520 1.00079
1.525 0.98720
1.530 0.99345
1.535 1.00744
1.540 1.02173
1.545 0.99672
1.550 0.99494
1.555 1.02342
1.560 1.01280
1.565 1.00129
1.570 1.01499
1.575 1.01836
1.580 1.02491
1.585 1.00625
1.590 1.00407
1.595 1.01707
1.600 1.01548
1.605 1.02293
1.610 1.03563
1.615 1.01995
1.625 0.99553
1.630 1.02203
1.635 1.00814
1.640 1.00615
1.645 1.00754
1.650 1.01638
1.655 1.00953
1.660 1.01340
1.665 1.00863
1.670 1.03305
1.675 1.01548
1.680 0.99931
1.685 1.02164
1.690 1.02005
1.695 1.00109
1.700 1.01330
1.705 1.03712
1.710 1.02144
1.715 1.00764
1.720 1.00506
1.730 1.00397
1.735 1.01727
1.740 1.02054
1.745 1.03325
1.750 1.02799
1.755 1.01399
1.765 1.00427
1.770 1.00973
1.775 1.01002
1.780 1.03305
1.785 1.04000
1.790 1.01856
1.795 1.00893
1.800 1.04019
1.805 1.05836
1.810 1.04823
1.815 1.00794
1.820 1.04575
1.825 1.04148
1.830 1.01767
1.835 1.03484
1.845 1.01300
1.850 1.01886
1.855 1.02322
1.860 1.00923
1.865 1.06024
1.870 0.99395
1.885 1.03751
1.890 1.05220
1.895 1.06908
1.900 1.01280
1.905 1.00020
1.910 1.02878
1.915 1.05210
1.920 1.04635
1.925 1.04724
1.930 1.06223
1.935 1.04277
1.940 1.01647
1.945 1.06491
1.950 1.05756
1.955 1.01221
1.960 1.00516
1.965 0.99881
1.970 1.03047
1.975 1.03493
1.980 1.02630
1.985 1.04367
1.990 1.03543
1.995 1.01320
2.000 1.04297
2.020 0.98462
2.025 1.00734
2.030 1.03245
2.035 1.04287
2.040 1.00427
2.045 1.00020
2.050 1.02809
2.055 1.01042
2.060 0.98005
2.065 0.99950
2.070 1.02938
2.075 1.00655
2.080 1.01886
2.085 1.01558
2.090 1.02471
2.095 1.03285
2.100 1.03761
2.105 1.01846
2.110 1.01320
2.115 1.02908
2.120 1.01737
2.125 1.02312
2.130 1.01757
2.135 1.03116
2.140 1.03533
2.145 1.02332
2.150 1.02610
2.155 1.00328
2.160 1.00466
2.165 1.01628
2.170 1.02173
2.175 1.01578
2.180 1.01598
2.185 1.00357
2.190 1.00079
2.195 1.01628
2.200 1.01906
2.205 1.00992
2.210 0.99484
2.215 0.98253
2.220 1.02054
2.225 1.01647
2.230 0.99782
2.235 1.00675
2.240 1.01102
2.245 1.02590
2.250 1.00079
2.255 1.00744
2.260 1.02958
2.265 1.00754
2.270 1.00169
2.275 1.01995
2.280 1.03037
2.290 1.00119
2.320 1.02690
2.325 1.01052
2.330 0.99712
2.335 0.99682
2.345 1.01906
2.350 1.02829
2.355 1.03990
2.360 0.99682
2.370 1.01260
2.380 1.01915
2.405 1.03067
2.410 1.00010
2.415 0.99543
2.430 1.01985
2.440 1.03533
2.445 1.00139
2.455 1.00089
2.475 1.02322
