Asteroid designations ( Number, Name, Temporary designation): 2867, Steins, 1969_VC
Observation was done on (UT) (format YYYY-MM-DD-hh): 2007 - 03 - 12 - 07:32
Observation was made by : Birlan, Nedelcu E-mail; birlan@imcce.fr
At observatory with UAI code: 568
The spectrum was published in the article: http://adsabs.harvard.edu/abs/2007A%26A...473L..33N
Obsv. comments:
The normalization of this spectrum was made for the wavelength: 1.250 microns.
Old name of the file was: a28673_1010_sHD259516am1184_1021.FIN
Wavelength[um]	Reflectance	sigma(optional)
0.820 0.88643
0.825 0.89085
0.830 0.89738
0.835 0.89958
0.840 0.90049
0.845 0.90695
0.850 0.90536
0.855 0.90133
0.860 0.90508
0.865 0.90242
0.870 0.90654
0.875 0.90458
0.880 0.91122
0.885 0.91592
0.890 0.91546
0.895 0.91581
0.900 0.91929
0.910 0.93501
0.915 0.93599
0.920 0.92967
0.925 0.92915
0.930 0.92682
0.935 0.93961
0.940 0.93897
0.945 0.93798
0.950 0.93517
0.955 0.94533
0.960 0.94355
0.965 0.94436
0.970 0.95734
0.975 0.95838
0.980 0.95781
0.985 0.95761
0.990 0.96017
0.995 0.95376
1.000 0.95310
1.015 0.96579
1.020 0.96895
1.025 0.96775
1.030 0.97008
1.035 0.97436
1.040 0.97034
1.045 0.97159
1.050 0.97348
1.055 0.97800
1.060 0.97078
1.065 0.97288
1.070 0.97806
1.075 0.98199
1.080 0.97781
1.085 0.97940
1.090 0.98146
1.095 0.98252
1.100 0.98877
1.105 0.99031
1.115 0.99033
1.120 0.98702
1.125 0.99244
1.130 0.98645
1.135 0.99107
1.140 0.99598
1.145 0.99486
1.150 0.99668
1.155 0.99209
1.160 0.99257
1.165 0.99063
1.170 0.99439
1.175 0.99267
1.180 0.98968
1.185 0.99400
1.190 0.99579
1.195 0.99552
1.200 0.99193
1.205 0.99555
1.210 0.99731
1.215 0.99679
1.220 0.99552
1.225 0.99648
1.230 0.99838
1.235 0.99755
1.240 0.99794
1.245 1.00295
1.250 1.00000
1.255 1.00059
1.260 0.99587
1.265 0.99473
1.270 0.99363
1.275 0.98992
1.280 0.99023
1.285 0.99178
1.290 0.99347
1.295 0.99621
1.300 0.99286
1.305 0.99341
1.310 0.99606
1.315 0.99877
1.320 1.00199
1.325 1.00271
1.330 1.00296
1.335 1.00125
1.340 1.00762
1.345 1.00443
1.355 0.99163
1.360 0.99015
1.370 1.00152
1.380 0.98347
1.400 0.98835
1.405 0.99350
1.410 0.98575
1.420 0.98290
1.425 0.99074
1.430 0.98801
1.435 0.98695
1.440 0.98539
1.445 0.98641
1.450 0.98813
1.455 0.99335
1.460 0.98964
1.465 0.97874
1.470 0.97769
1.475 0.98774
1.480 0.98592
1.485 0.98852
1.490 0.98926
1.495 0.98520
1.500 0.98218
1.505 0.98334
1.510 0.98480
1.515 0.98100
1.520 0.97672
1.525 0.97713
1.530 0.97806
1.535 0.97832
1.540 0.97945
1.545 0.97522
1.550 0.97656
1.555 0.98127
1.560 0.98621
1.565 0.99258
1.570 0.98670
1.575 0.97953
1.580 0.97840
1.585 0.98347
1.590 0.98550
1.595 0.98017
1.600 0.98705
1.605 0.98795
1.610 0.98530
1.615 0.98433
1.620 0.98831
1.625 0.98749
1.630 0.99068
1.635 0.98478
1.640 0.98137
1.645 0.98528
1.650 0.98823
1.655 0.99515
1.660 1.00049
1.665 0.99685
1.670 0.99460
1.675 0.99386
1.680 0.98867
1.685 0.99632
1.690 0.99961
1.695 0.99926
1.700 0.99435
1.705 1.00285
1.710 0.99885
1.715 1.00295
1.720 1.00954
1.725 1.00435
1.730 0.99352
1.735 0.99670
1.740 0.99212
1.745 0.99045
1.750 0.98938
1.755 1.00727
1.760 1.01124
1.765 1.00416
1.770 1.00235
1.775 1.00551
1.780 1.00668
1.785 1.00663
1.790 1.01225
1.795 1.01658
1.800 1.00765
1.805 0.99074
1.810 0.99043
1.850 1.02502
1.855 0.99733
1.860 1.04099
1.880 1.03070
1.905 1.01594
1.910 1.02036
1.920 1.02508
1.925 0.99987
1.935 1.01015
1.950 1.00239
1.955 0.99834
1.960 0.99608
1.965 0.99934
1.970 1.01384
1.975 1.00468
1.980 1.01028
1.985 1.00383
1.990 1.00926
1.995 1.01882
2.000 1.01189
2.005 1.02130
2.010 1.03584
2.015 1.04618
2.020 1.04052
2.025 1.03545
2.030 1.04120
2.035 1.04242
2.040 1.03125
2.045 1.03684
2.050 1.03976
2.055 1.03895
2.060 1.04389
2.065 1.04177
2.070 1.03270
2.075 1.03880
2.080 1.04108
2.085 1.04741
2.090 1.04417
2.095 1.03693
2.100 1.03595
2.105 1.03169
2.110 1.02572
2.115 1.03036
2.120 1.01567
2.125 1.02100
2.130 1.01347
2.135 1.01410
2.140 1.00879
2.145 1.01930
2.150 1.01200
2.155 1.00474
2.160 1.01483
2.165 1.01588
2.170 1.00747
2.175 1.01100
2.180 1.01419
2.185 1.01232
2.190 1.02244
2.195 1.00405
2.200 1.02680
2.205 1.03836
2.210 1.04262
2.215 1.04349
2.220 1.02497
2.225 1.02026
2.230 1.03274
2.235 1.02724
2.240 1.02760
2.245 1.03917
2.250 1.04770
2.255 1.04397
2.260 1.03462
2.265 1.02933
2.270 1.03684
2.275 1.04490
2.280 1.03553
2.285 1.03837
2.290 1.02777
2.295 1.03894
2.300 1.04036
2.305 1.04297
2.310 1.04892
2.315 1.03228
2.320 1.03050
2.325 1.03793
2.330 1.01457
2.335 1.01478
2.340 1.02835
2.345 1.04627
2.350 1.03293
2.355 1.03584
2.360 1.01578
2.365 1.04628
2.370 1.00884
2.375 1.03727
2.380 1.03569
2.385 1.04622
2.390 1.02869
2.395 1.00754
2.400 1.03721
2.405 1.05457
2.415 1.03176
2.420 1.01743
2.425 1.03020
2.430 1.01939
2.435 1.01365
2.440 1.01501
2.445 0.98624
2.450 0.99386
2.455 1.00466
2.465 1.01171
2.470 0.97165
2.475 0.96056
2.480 0.99860
2.490 0.95704
